# T/Tc, energy/T^4_max,energy/T^4_min
     0.63291      5.13105      0.00033
     0.65486      4.67355      0.00034
     0.67680      4.31931      0.00035
     0.69875      4.05531      0.00037
     0.72069      3.87103      0.00039
     0.74264      3.75715      0.00043
     0.76458      3.70462      0.00049
     0.78653      3.70403      0.00057
     0.80847      3.74562      0.00067
     0.83042      3.81997      0.00081
     0.85236      3.91921      0.00098
     0.87431      4.03850      0.00118
     0.89625      4.17699      0.00141
     0.91820      4.33817      0.00168
     0.94014      4.52908      0.00197
     0.96209      4.79642      0.00231
     0.98403      5.11830      0.00270
     1.00598      5.48563      0.00317
     1.02792      5.88760      0.00372
     1.04987      6.30328      0.00436
     1.07181      6.70696      0.00508
     1.09376      7.07582      0.00587
     1.11571      7.39626      0.00672
     1.13765      7.66617      0.00760
     1.15960      7.89303      0.00852
     1.18154      8.08980      0.00947
     1.20349      8.27084      0.01046
     1.22543      8.44870      0.01151
     1.24738      8.63253      0.01264
     1.26932      8.82724      0.01386
     1.29127      9.03394      0.01518
     1.31321      9.25038      0.01662
     1.33516      9.47210      0.01818
     1.35710      9.69337      0.01986
     1.37905      9.90832      0.02166
     1.40099     10.11166      0.02357
     1.42294     10.29922      0.02558
     1.44488     10.46829      0.02769
     1.46683     10.61757      0.02988
     1.48877     10.74707      0.03215
     1.51072     10.85783      0.03450
     1.53266     10.95165      0.03690
     1.55461     11.03082      0.03938
     1.57655     11.09781      0.04194
     1.59850     11.15519      0.04459
     1.62044     11.20537      0.04735
     1.64239     11.25057      0.05021
     1.66433     11.29270      0.05320
     1.68628     11.33338      0.05630
     1.70822     11.37386      0.05952
     1.73017     11.41509      0.06289
     1.75212     11.45768      0.06641
     1.77406     11.50198      0.07008
     1.79601     11.54809      0.07393
     1.81795     11.59589      0.07796
     1.83990     11.64514      0.08216
     1.86184     11.69550      0.08651
     1.88379     11.74651      0.09104
     1.90573     11.80174      0.09576
     1.92768     11.87029      0.10068
     1.94962     11.93726      0.10579
     1.97157     12.00208      0.11105
     1.99351     12.06433      0.11651
     2.01546     12.12373      0.12216
     2.03740     12.18007      0.12802
     2.05935     12.23330      0.13407
     2.08129     12.28340      0.14034
     2.10324     12.33047      0.14681
     2.12518     12.37463      0.15349
     2.14713     12.41603      0.16040
     2.16907     12.45489      0.16753
     2.19102     12.49423      0.17489
     2.21296     12.53289      0.18248
     2.23491     12.56960      0.19033
     2.25685     12.60446      0.19843
     2.27880     12.63753      0.20680
     2.30074     12.66877      0.21544
     2.32269     12.69811      0.22436
     2.34463     12.72544      0.23356
     2.36658     12.75059      0.24306
     2.38852     12.77342      0.25284
     2.41047     12.79379      0.26291
     2.43242     12.81161      0.27327
     2.45436     12.82683      0.28387
     2.47631     12.83947      0.29472
     2.49825     12.84962      0.30585
     2.52020     12.85742      0.31726
     2.54214     12.86304      0.32896
     2.56409     12.86667      0.34096
     2.58603     12.86856      0.35324
     2.60798     12.86887      0.36583
     2.62992     12.86785      0.37872
     2.65187     12.86566      0.39193
     2.67381     12.86244      0.40547
     2.69576     12.85834      0.41925
     2.71770     12.85915      0.43337
     2.73965     12.86287      0.44783
     2.76159     12.86984      0.46265
     2.78354     12.87676      0.47783
     2.80548     12.88383      0.49340
     2.82743     12.89126      0.50933
     2.84937     12.89924      0.52548
     2.87132     12.90795      0.54203
     2.89326     12.92094      0.55883
     2.91521     12.93936      0.57592
     2.93715     12.95871      0.59343
     2.95910     12.97882      0.61138
     2.98104     12.99945      0.62975
     3.00299     13.02027      0.64842
     3.02493     13.04091      0.66750
     3.04688     13.06103      0.68698
     3.06883     13.08025      0.70687
     3.09077     13.09827      0.72713
     3.11272     13.11482      0.74776
     3.13466     13.12970      0.76875
     3.15661     13.14274      0.79010
     3.17855     13.15382      0.81178
     3.20050     13.16285      0.83380
     3.22244     13.16967      0.85615
     3.24439     13.17416      0.87882
     3.26633     13.17613      0.90180
     3.28828     13.17532      0.92508
     3.31022     13.17144      0.94863
     3.33217     13.16414      0.97244
     3.35411     13.15307      0.99647
     3.37606     13.13787      1.02070
     3.39800     13.11824      1.04508
     3.41995     13.09393      1.06958
     3.44189     13.06481      1.09416
     3.46384     13.03084      1.11878
     3.48578     12.99209      1.14342
     3.50773     12.94874      1.16804
     3.52967     12.90107      1.19264
     3.55162     12.84946      1.21719
     3.57356     12.79429      1.24168
     3.59551     12.73603      1.26612
     3.61745     12.67513      1.29052
     3.63940     12.61207      1.31488
     3.66134     12.54733      1.33922
     3.68329     12.48134      1.36356
     3.70524     12.41458      1.38792
     3.72718     12.34745      1.41233
     3.74913     12.28038      1.43681
     3.77107     12.21377      1.46141
     3.79302     12.14801      1.48615
     3.81496     12.08345      1.51106
     3.83691     12.02045      1.53620
     3.85885     11.95932      1.56160
     3.88080     11.90037      1.58731
     3.90274     11.84383      1.61336
     3.92469     11.78992      1.63981
     3.94663     11.73879      1.66671
     3.96858     11.69057      1.69409
     3.99052     11.64531      1.72202
     4.01247     11.60301      1.75052
     4.03441     11.56362      1.77964
     4.05636     11.52705      1.80941
     4.07830     11.49314      1.83988
     4.10025     11.46169      1.87106
     4.12219     11.43250      1.90298
     4.14414     11.40530      1.93564
     4.16608     11.37982      1.96907
     4.18803     11.35577      2.00326
     4.20997     11.33288      2.03821
     4.23192     11.31087      2.07391
     4.25386     11.28946      2.11033
     4.27581     11.26842      2.14747
     4.29775     11.24753      2.18529
     4.31970     11.22661      2.22377
     4.34164     11.20552      2.26287
     4.36359     11.18418      2.30257
     4.38554     11.16254      2.34283
     4.40748     11.14062      2.38362
     4.42943     11.11851      2.42492
     4.45137     11.09636      2.46669
     4.47332     11.07436      2.50892
     4.49526     11.05281      2.55161
     4.51721     11.03202      2.59473
     4.53915     11.01237      2.63831
     4.56110     10.99423      2.68235
     4.58304     10.97795      2.72690
     4.60499     10.96378      2.77199
     4.62693     10.95177      2.81770
     4.64888     10.94169      2.86411
     4.67082     10.93289      2.91133
     4.69277     10.92424      2.95947
     4.71471     10.91413      3.00868
     4.73666     10.90063      3.05912
     4.75860     10.88175      3.11094
     4.78055     10.85586      3.16430
     4.80249     10.82202      3.21930
     4.82444     10.78007      3.27600
     4.84638     10.73056      3.33432
     4.86833     10.67456      3.39407
     4.89027     10.61340      3.45484
     4.91222     10.54857      3.51606
     4.93416     10.48159      3.57699
     4.95611     10.41403      3.63683
     4.97805     10.34733      3.69483
     5.00000     10.28256      3.75043
