# T/Tc, energy/T^4_max,energy/T^4_min
     0.63291      4.92731      0.00037
     0.65486      4.47842      0.00038
     0.67680      4.12824      0.00039
     0.69875      3.86493      0.00041
     0.72069      3.67931      0.00043
     0.74264      3.56376      0.00047
     0.76458      3.51112      0.00052
     0.78653      3.51385      0.00059
     0.80847      3.56359      0.00069
     0.83042      3.65166      0.00083
     0.85236      3.77012      0.00100
     0.87431      3.91345      0.00121
     0.89625      4.10320      0.00145
     0.91820      4.32804      0.00173
     0.94014      4.57997      0.00206
     0.96209      4.86938      0.00244
     0.98403      5.20254      0.00288
     1.00598      5.57690      0.00340
     1.02792      5.97889      0.00401
     1.04987      6.38952      0.00470
     1.07181      6.78859      0.00546
     1.09376      7.15830      0.00626
     1.11571      7.47513      0.00710
     1.13765      7.73936      0.00795
     1.15960      7.95411      0.00884
     1.18154      8.13642      0.00975
     1.20349      8.30269      0.01072
     1.22543      8.46591      0.01176
     1.24738      8.63769      0.01289
     1.26932      8.82586      0.01411
     1.29127      9.02298      0.01544
     1.31321      9.22556      0.01689
     1.33516      9.42850      0.01844
     1.35710      9.62645      0.02010
     1.37905      9.81455      0.02187
     1.40099      9.98912      0.02373
     1.42294     10.15264      0.02568
     1.44488     10.30630      0.02771
     1.46683     10.44130      0.02981
     1.48877     10.55806      0.03199
     1.51072     10.65789      0.03425
     1.53266     10.74271      0.03658
     1.55461     10.81897      0.03899
     1.57655     10.88637      0.04149
     1.59850     10.94593      0.04410
     1.62044     10.99972      0.04682
     1.64239     11.04969      0.04965
     1.66433     11.09754      0.05260
     1.68628     11.14485      0.05568
     1.70822     11.19285      0.05891
     1.73017     11.24258      0.06230
     1.75212     11.30041      0.06586
     1.77406     11.36277      0.06960
     1.79601     11.42888      0.07353
     1.81795     11.49841      0.07759
     1.83990     11.57525      0.08182
     1.86184     11.65683      0.08624
     1.88379     11.74092      0.09086
     1.90573     11.82551      0.09568
     1.92768     11.90843      0.10072
     1.94962     11.98869      0.10596
     1.97157     12.06555      0.11141
     1.99351     12.13855      0.11707
     2.01546     12.20745      0.12294
     2.03740     12.27215      0.12902
     2.05935     12.33941      0.13531
     2.08129     12.40363      0.14182
     2.10324     12.46363      0.14854
     2.12518     12.51945      0.15549
     2.14713     12.57119      0.16265
     2.16907     12.61898      0.17005
     2.19102     12.66300      0.17769
     2.21296     12.70342      0.18557
     2.23491     12.74046      0.19370
     2.25685     12.77430      0.20209
     2.27880     12.80506      0.21075
     2.30074     12.83287      0.21957
     2.32269     12.85780      0.22855
     2.34463     12.87989      0.23779
     2.36658     12.89913      0.24729
     2.38852     12.91553      0.25690
     2.41047     12.92909      0.26676
     2.43242     12.94510      0.27688
     2.45436     12.96412      0.28726
     2.47631     12.97998      0.29790
     2.49825     12.99278      0.30880
     2.52020     13.00262      0.31996
     2.54214     13.00965      0.33139
     2.56409     13.01407      0.34308
     2.58603     13.01604      0.35504
     2.60798     13.01576      0.36727
     2.62992     13.01341      0.37977
     2.65187     13.00911      0.39255
     2.67381     13.00301      0.40562
     2.69576     12.99523      0.41897
     2.71770     12.98585      0.43263
     2.73965     12.97498      0.44659
     2.76159     12.96268      0.46087
     2.78354     12.94904      0.47550
     2.80548     12.93413      0.49047
     2.82743     12.91800      0.50581
     2.84937     12.90067      0.52154
     2.87132     12.88217      0.53765
     2.89326     12.86243      0.55368
     2.91521     12.84139      0.56998
     2.93715     12.81894      0.58670
     2.95910     12.79489      0.60385
     2.98104     12.77167      0.62143
     3.00299     12.75215      0.63944
     3.02493     12.73122      0.65789
     3.04688     12.70873      0.67680
     3.06883     12.69288      0.69617
     3.09077     12.68236      0.71561
     3.11272     12.67097      0.73489
     3.13466     12.65871      0.75368
     3.15661     12.65537      0.77227
     3.17855     12.65821      0.79101
     3.20050     12.66250      0.80989
     3.22244     12.66742      0.82889
     3.24439     12.67222      0.84797
     3.26633     12.67633      0.86709
     3.28828     12.67939      0.88620
     3.31022     12.68114      0.90526
     3.33217     12.68139      0.92423
     3.35411     12.67987      0.94304
     3.37606     12.67624      0.96168
     3.39800     12.67005      0.98010
     3.41995     12.66083      0.99829
     3.44189     12.64809      1.01622
     3.46384     12.63136      1.03387
     3.48578     12.61026      1.05122
     3.50773     12.58446      1.06826
     3.52967     12.55376      1.08494
     3.55162     12.51804      1.10126
     3.57356     12.47727      1.11719
     3.59551     12.43150      1.13271
     3.61745     12.38089      1.14781
     3.63940     12.32563      1.16247
     3.66134     12.26599      1.17672
     3.68329     12.20230      1.19054
     3.70524     12.13492      1.20398
     3.72718     12.06425      1.21705
     3.74913     11.99071      1.22980
     3.77107     11.91477      1.24225
     3.79302     11.83688      1.25448
     3.81496     11.75751      1.26651
     3.83691     11.67713      1.27841
     3.85885     11.59621      1.29024
     3.88080     11.51520      1.30204
     3.90274     11.43455      1.31387
     3.92469     11.35467      1.32578
     3.94663     11.27596      1.33782
     3.96858     11.19880      1.35004
     3.99052     11.12350      1.36248
     4.01247     11.05037      1.37516
     4.03441     10.97968      1.38812
     4.05636     10.91164      1.40137
     4.07830     10.84640      1.41491
     4.10025     10.79163      1.42876
     4.12219     10.74653      1.44289
     4.14414     10.70241      1.45731
     4.16608     10.65919      1.47198
     4.18803     10.61686      1.48689
     4.20997     10.57536      1.50200
     4.23192     10.53464      1.51731
     4.25386     10.49465      1.53280
     4.27581     10.45536      1.54845
     4.29775     10.41674      1.56426
     4.31970     10.37877      1.58024
     4.34164     10.34145      1.59642
     4.36359     10.30479      1.61284
     4.38554     10.26885      1.62956
     4.40748     10.23367      1.64666
     4.42943     10.19936      1.66425
     4.45137     10.16607      1.68246
     4.47332     10.13396      1.70147
     4.49526     10.10330      1.72148
     4.51721     10.10087      1.74275
     4.53915     10.12654      1.76558
     4.56110     10.15768      1.79032
     4.58304     10.18838      1.81734
     4.60499     10.21137      1.84704
     4.62693     10.21982      1.87974
     4.64888     10.20916      1.91562
     4.67082     10.17801      1.95457
     4.69277     10.12788      1.99604
     4.71471     10.06198      2.03898
     4.73666      9.99655      2.08186
     4.75860     10.01540      2.12290
     4.78055     10.03404      2.16053
     4.80249     10.04862      2.19366
     4.82444     10.05524      2.22192
     4.84638     10.05078      2.24552
     4.86833     10.03353      2.26508
     4.89027     10.00340      2.28136
     4.91222      9.98708      2.29515
     4.93416      9.99024      2.30709
     4.95611      9.98465      2.31774
     4.97805      9.97022      2.32751
     5.00000      9.94780      2.33674
