# T/Tc, energy/T^4_max,energy/T^4_min
     0.63291      5.22452      0.00037
     0.65486      4.73491      0.00038
     0.67680      4.35656      0.00039
     0.69875      4.07620      0.00041
     0.72069      3.88301      0.00044
     0.74264      3.76708      0.00049
     0.76458      3.71843      0.00055
     0.78653      3.72650      0.00064
     0.80847      3.78056      0.00075
     0.83042      3.87089      0.00090
     0.85236      3.99038      0.00108
     0.87431      4.13595      0.00129
     0.89625      4.30923      0.00153
     0.91820      4.51603      0.00181
     0.94014      4.76417      0.00213
     0.96209      5.07439      0.00250
     0.98403      5.42813      0.00295
     1.00598      5.81426      0.00349
     1.02792      6.21285      0.00411
     1.04987      6.59970      0.00479
     1.07181      6.95569      0.00554
     1.09376      7.28579      0.00630
     1.11571      7.55942      0.00711
     1.13765      7.78501      0.00794
     1.15960      7.97638      0.00881
     1.18154      8.14825      0.00972
     1.20349      8.31334      0.01070
     1.22543      8.48089      0.01175
     1.24738      8.65615      0.01290
     1.26932      8.84083      0.01415
     1.29127      9.03369      0.01550
     1.31321      9.23143      0.01697
     1.33516      9.43698      0.01855
     1.35710      9.63935      0.02022
     1.37905      9.83145      0.02199
     1.40099     10.01590      0.02385
     1.42294     10.18675      0.02580
     1.44488     10.33877      0.02782
     1.46683     10.47168      0.02992
     1.48877     10.58622      0.03207
     1.51072     10.68395      0.03430
     1.53266     10.76689      0.03660
     1.55461     10.83735      0.03900
     1.57655     10.89763      0.04149
     1.59850     10.95006      0.04408
     1.62044     10.99674      0.04679
     1.64239     11.04491      0.04962
     1.66433     11.09206      0.05259
     1.68628     11.13907      0.05570
     1.70822     11.18704      0.05889
     1.73017     11.23622      0.06224
     1.75212     11.28723      0.06576
     1.77406     11.34091      0.06945
     1.79601     11.40189      0.07333
     1.81795     11.48466      0.07740
     1.83990     11.57060      0.08167
     1.86184     11.65806      0.08610
     1.88379     11.74512      0.09073
     1.90573     11.82994      0.09556
     1.92768     11.91105      0.10057
     1.94962     11.98748      0.10573
     1.97157     12.05876      0.11109
     1.99351     12.12483      0.11667
     2.01546     12.18583      0.12246
     2.03740     12.24204      0.12846
     2.05935     12.29378      0.13468
     2.08129     12.34135      0.14114
     2.10324     12.38510      0.14782
     2.12518     12.43959      0.15475
     2.14713     12.49769      0.16192
     2.16907     12.55326      0.16934
     2.19102     12.60635      0.17702
     2.21296     12.65695      0.18497
     2.23491     12.70503      0.19318
     2.25685     12.75052      0.20152
     2.27880     12.79330      0.21013
     2.30074     12.83321      0.21901
     2.32269     12.87008      0.22819
     2.34463     12.90371      0.23766
     2.36658     12.93394      0.24742
     2.38852     12.96062      0.25741
     2.41047     12.98370      0.26768
     2.43242     13.00312      0.27821
     2.45436     13.01897      0.28901
     2.47631     13.03132      0.29984
     2.49825     13.04036      0.31087
     2.52020     13.04626      0.32215
     2.54214     13.04924      0.33369
     2.56409     13.05701      0.34549
     2.58603     13.06530      0.35754
     2.60798     13.07007      0.36984
     2.62992     13.07147      0.38240
     2.65187     13.06968      0.39521
     2.67381     13.06487      0.40827
     2.69576     13.05725      0.42160
     2.71770     13.04697      0.43518
     2.73965     13.03421      0.44903
     2.76159     13.01913      0.46315
     2.78354     13.00186      0.47756
     2.80548     12.98253      0.49227
     2.82743     12.96124      0.50714
     2.84937     12.93812      0.52222
     2.87132     12.91321      0.53768
     2.89326     12.88657      0.55355
     2.91521     12.85827      0.56986
     2.93715     12.82831      0.58662
     2.95910     12.80147      0.60383
     2.98104     12.77811      0.62151
     3.00299     12.75330      0.63965
     3.02493     12.72698      0.65827
     3.04688     12.70203      0.67738
     3.06883     12.68697      0.69677
     3.09077     12.67131      0.71513
     3.11272     12.65506      0.73322
     3.13466     12.63827      0.75155
     3.15661     12.62480      0.77012
     3.17855     12.63140      0.78893
     3.20050     12.63760      0.80798
     3.22244     12.64193      0.82726
     3.24439     12.64326      0.84676
     3.26633     12.64091      0.86645
     3.28828     12.63465      0.88630
     3.31022     12.62447      0.90539
     3.33217     12.61053      0.92314
     3.35411     12.59297      0.94048
     3.37606     12.57190      0.95737
     3.39800     12.54738      0.97379
     3.41995     12.51946      0.98969
     3.44189     12.48816      1.00505
     3.46384     12.45354      1.01983
     3.48578     12.41567      1.03399
     3.50773     12.37463      1.04751
     3.52967     12.33054      1.06040
     3.55162     12.28354      1.07267
     3.57356     12.23375      1.08435
     3.59551     12.18132      1.09550
     3.61745     12.12640      1.10619
     3.63940     12.07347      1.11650
     3.66134     12.02556      1.12655
     3.68329     11.97714      1.13642
     3.70524     11.92868      1.14624
     3.72718     11.88061      1.15612
     3.74913     11.83336      1.16618
     3.77107     11.78731      1.17652
     3.79302     11.74281      1.18725
     3.81496     11.73069      1.19846
     3.83691     11.72860      1.21021
     3.85885     11.72875      1.22257
     3.88080     11.73066      1.23556
     3.90274     11.73384      1.24918
     3.92469     11.73778      1.26343
     3.94663     11.74197      1.27827
     3.96858     11.74593      1.29364
     3.99052     11.74919      1.30949
     4.01247     11.75135      1.32575
     4.03441     11.75205      1.34236
     4.05636     11.75104      1.35929
     4.07830     11.74808      1.37651
     4.10025     11.74307      1.39401
     4.12219     11.73594      1.41183
     4.14414     11.72674      1.43004
     4.16608     11.71556      1.44875
     4.18803     11.70262      1.46813
     4.20997     11.68819      1.48837
     4.23192     11.67268      1.50977
     4.25386     11.65659      1.53266
     4.27581     11.64054      1.55744
     4.29775     11.62532      1.58458
     4.31970     11.61183      1.61454
     4.34164     11.60113      1.64771
     4.36359     11.59438      1.68430
     4.38554     11.59281      1.72408
     4.40748     11.59751      1.76623
     4.42943     11.60925      1.80925
     4.45137     11.62811      1.85113
     4.47332     11.65310      1.88984
     4.49526     11.68175      1.92384
     4.51721     11.71009      1.95244
     4.53915     11.73305      1.97579
     4.56110     11.74546      1.99459
     4.58304     11.74324      2.00976
     4.60499     11.72437      2.02220
     4.62693     11.68910      2.03266
     4.64888     11.63950      2.04174
     4.67082     11.57864      2.04990
     4.69277     11.50989      2.05745
     4.71471     11.43636      2.06463
     4.73666     11.36070      2.07160
     4.75860     11.28492      2.07847
     4.78055     11.21035      2.08532
     4.80249     11.13754      2.09221
     4.82444     11.06623      2.09918
     4.84638     11.03288      2.10625
     4.86833     11.02220      2.11346
     4.89027     10.98561      2.12081
     4.91222     10.92422      2.12832
     4.93416     10.84119      2.13599
     4.95611     10.74068      2.14385
     4.97805     10.62693      2.15191
     5.00000     10.50375      2.16016
