# T/Tc, energy/T^4_max,energy/T^4_min
     0.63291      6.58082      0.00043
     0.65486      6.00979      0.00045
     0.67680      5.55127      0.00047
     0.69875      5.18771      0.00050
     0.72069      4.90496      0.00054
     0.74264      4.69137      0.00059
     0.76458      4.53709      0.00066
     0.78653      4.43364      0.00075
     0.80847      4.37372      0.00086
     0.83042      4.35118      0.00101
     0.85236      4.36126      0.00118
     0.87431      4.40091      0.00137
     0.89625      4.46910      0.00160
     0.91820      4.56709      0.00184
     0.94014      4.69830      0.00213
     0.96209      4.86777      0.00246
     0.98403      5.08098      0.00285
     1.00598      5.40097      0.00331
     1.02792      5.77004      0.00385
     1.04987      6.16659      0.00449
     1.07181      6.57223      0.00521
     1.09376      6.96580      0.00602
     1.11571      7.32891      0.00690
     1.13765      7.65008      0.00781
     1.15960      7.92626      0.00878
     1.18154      8.16156      0.00978
     1.20349      8.36478      0.01083
     1.22543      8.54654      0.01192
     1.24738      8.71704      0.01308
     1.26932      8.89499      0.01429
     1.29127      9.07251      0.01559
     1.31321      9.25264      0.01700
     1.33516      9.43641      0.01852
     1.35710      9.62766      0.02015
     1.37905      9.82796      0.02190
     1.40099     10.02372      0.02377
     1.42294     10.21088      0.02573
     1.44488     10.38869      0.02780
     1.46683     10.55205      0.02996
     1.48877     10.69912      0.03221
     1.51072     10.82927      0.03455
     1.53266     10.94295      0.03698
     1.55461     11.04135      0.03950
     1.57655     11.13132      0.04212
     1.59850     11.21431      0.04484
     1.62044     11.28805      0.04768
     1.64239     11.35428      0.05060
     1.66433     11.41452      0.05366
     1.68628     11.47014      0.05686
     1.70822     11.52230      0.06021
     1.73017     11.57192      0.06372
     1.75212     11.61970      0.06731
     1.77406     11.66623      0.07104
     1.79601     11.72005      0.07495
     1.81795     11.80855      0.07903
     1.83990     11.89261      0.08330
     1.86184     11.96972      0.08776
     1.88379     12.03895      0.09242
     1.90573     12.10086      0.09730
     1.92768     12.15672      0.10240
     1.94962     12.20794      0.10775
     1.97157     12.25566      0.11334
     1.99351     12.30073      0.11920
     2.01546     12.34367      0.12515
     2.03740     12.38475      0.13128
     2.05935     12.43891      0.13764
     2.08129     12.49153      0.14418
     2.10324     12.54089      0.15095
     2.12518     12.58671      0.15796
     2.14713     12.63125      0.16520
     2.16907     12.69181      0.17267
     2.19102     12.74963      0.18038
     2.21296     12.80305      0.18831
     2.23491     12.85187      0.19648
     2.25685     12.89595      0.20487
     2.27880     12.93525      0.21350
     2.30074     12.96981      0.22231
     2.32269     12.99972      0.23121
     2.34463     13.02508      0.24036
     2.36658     13.04607      0.24975
     2.38852     13.06281      0.25938
     2.41047     13.07552      0.26926
     2.43242     13.08437      0.27939
     2.45436     13.08958      0.28977
     2.47631     13.09135      0.30040
     2.49825     13.08994      0.31129
     2.52020     13.08555      0.32245
     2.54214     13.07843      0.33386
     2.56409     13.06879      0.34555
     2.58603     13.05683      0.35751
     2.60798     13.04273      0.36975
     2.62992     13.02665      0.38228
     2.65187     13.00873      0.39509
     2.67381     12.98908      0.40819
     2.69576     12.96782      0.42158
     2.71770     12.94820      0.43526
     2.73965     12.93279      0.44923
     2.76159     12.91572      0.46349
     2.78354     12.89700      0.47804
     2.80548     12.87669      0.49287
     2.82743     12.85488      0.50798
     2.84937     12.83192      0.52334
     2.87132     12.80879      0.53882
     2.89326     12.78458      0.55463
     2.91521     12.75953      0.57076
     2.93715     12.73387      0.58725
     2.95910     12.71529      0.60411
     2.98104     12.69751      0.62135
     3.00299     12.67975      0.63884
     3.02493     12.66208      0.65670
     3.04688     12.64453      0.67500
     3.06883     12.62706      0.69375
     3.09077     12.60960      0.71298
     3.11272     12.59204      0.73244
     3.13466     12.57421      0.75179
     3.15661     12.55595      0.77150
     3.17855     12.53703      0.79155
     3.20050     12.52375      0.81194
     3.22244     12.51987      0.83266
     3.24439     12.51581      0.85368
     3.26633     12.51108      0.87499
     3.28828     12.50519      0.89657
     3.31022     12.49769      0.91840
     3.33217     12.48822      0.94044
     3.35411     12.47644      0.96269
     3.37606     12.46210      0.98511
     3.39800     12.44493      1.00769
     3.41995     12.42476      1.03041
     3.44189     12.40139      1.05324
     3.46384     12.37466      1.07618
     3.48578     12.34442      1.09919
     3.50773     12.31051      1.12227
     3.52967     12.27281      1.14529
     3.55162     12.23124      1.16793
     3.57356     12.18570      1.19057
     3.59551     12.13621      1.21318
     3.61745     12.08280      1.23578
     3.63940     12.02555      1.25833
     3.66134     11.96461      1.28085
     3.68329     11.90020      1.30332
     3.70524     11.83259      1.32574
     3.72718     11.76209      1.34812
     3.74913     11.68906      1.37047
     3.77107     11.61390      1.39279
     3.79302     11.53704      1.41511
     3.81496     11.45891      1.43744
     3.83691     11.37999      1.45980
     3.85885     11.30071      1.48223
     3.88080     11.22156      1.50477
     3.90274     11.14297      1.52743
     3.92469     11.06537      1.55026
     3.94663     10.98918      1.57331
     3.96858     10.91478      1.59641
     3.99052     10.84252      1.61958
     4.01247     10.77271      1.64305
     4.03441     10.70563      1.66687
     4.05636     10.64153      1.69110
     4.07830     10.58058      1.71578
     4.10025     10.52293      1.74096
     4.12219     10.46867      1.76667
     4.14414     10.41784      1.79298
     4.16608     10.37043      1.81991
     4.18803     10.32768      1.84750
     4.20997     10.29034      1.87579
     4.23192     10.25629      1.90479
     4.25386     10.22530      1.93454
     4.27581     10.19708      1.96504
     4.29775     10.17132      1.99630
     4.31970     10.14765      2.02728
     4.34164     10.12568      2.05757
     4.36359     10.10506      2.08821
     4.38554     10.08537      2.11917
     4.40748     10.06625      2.15043
     4.42943     10.04732      2.18198
     4.45137     10.02826      2.21381
     4.47332     10.00879      2.24594
     4.49526      9.98866      2.27838
     4.51721      9.96768      2.31116
     4.53915      9.94575      2.34433
     4.56110      9.92280      2.37793
     4.58304      9.89884      2.41206
     4.60499      9.87394      2.44683
     4.62693      9.84828      2.48235
     4.64888      9.82207      2.51879
     4.67082      9.79563      2.55635
     4.69277      9.76933      2.59527
     4.71471      9.74364      2.63582
     4.73666      9.71911      2.67832
     4.75860      9.69637      2.72310
     4.78055      9.67615      2.77050
     4.80249      9.65927      2.82077
     4.82444      9.64665      2.87401
     4.84638      9.63924      2.93004
     4.86833      9.63807      2.98830
     4.89027      9.64410      3.04636
     4.91222      9.65815      3.09423
     4.93416      9.68067      3.14404
     4.95611      9.71150      3.19617
     4.97805      9.74958      3.25101
     5.00000      9.79257      3.30895
